Current Depth,Error,RMS,Signal
9.743460141889125,-2.00000000001509,2.00000000001509,-2060.000000015543
9.743460141405942,-1.9999999995319069,1.9999999997734985,-2059.999999517864
9.743081908824806,-1.9996217669507708,1.9998739301142052,-2059.6104199592937
9.739107347329961,-1.995647205455926,1.9988180868763017,-2055.5166216196035
9.730039898725057,-1.9865797568510217,1.9963764228233922,-2046.1771495565522
9.714990276730784,-1.9715301348567493,1.9922568936039136,-2030.6760389024519
9.698020678254696,-1.9545605363806615,1.9869154871325607,-2013.1973524720813
9.676853173096038,-1.9333930312220033,1.9803042911453141,-1991.3948221586634
9.655606580134094,-1.9121464382600593,1.9728474820133852,-1969.510831407861
9.634522433895242,-1.891062292021207,1.9648221618732697,-1947.794160781843
9.611256682548435,-1.8677965406743997,1.956200519449484,-1923.8304368946315
9.590862078228026,-1.8474019363539913,1.9473661509348814,-1902.823994444611
9.5687910345065,-1.825330892632465,1.9382516304308426,-1880.0908194114388
9.546850900342333,-1.8033907584682982,1.928931425223571,-1857.4924812223471
9.527416666980589,-1.7839565251065537,1.9196070967514987,-1837.4752208597502
9.504030055822245,-1.7605699139482098,1.9100552595144396,-1813.387011366656
9.485258139900692,-1.741797998026657,1.9005701586677186,-1794.0519379674565
9.462975911899678,-1.7195157700256427,1.8909664234000814,-1771.101243126412
9.442250735851847,-1.6987905939778116,1.881341371159144,-1749.7543117971459
9.422340190810049,-1.6788800489360138,1.8717384961657944,-1729.246450404094
9.399878856301536,-1.6564187144275007,1.862049855069937,-1706.1112758603256
9.380359030260705,-1.6368988883866695,1.8524094983277486,-1686.0058550382694
9.35887109144114,-1.6154109495671047,1.842739140576241,-1663.873278054118
9.337281450007186,-1.5938213081331511,1.8330425502781744,-1641.6359473771456
9.318056485350835,-1.5745963434768004,1.823408165299454,-1621.8342337811043
9.294740782553706,-1.5512806406796713,1.813696873347634,-1597.8190599000613
9.275970644234741,-1.5325105023607062,1.8040642747235356,-1578.4858174315273
9.253647383141711,-1.5101872412676762,1.7943976207878938,-1555.4928585057062
9.232882320427475,-1.4894221785534398,1.784748967450624,-1534.104843910043
9.21290141317281,-1.4694412712987752,1.775141262711808,-1513.5245094377385
9.190453138246701,-1.446992996372666,1.765508094727642,-1490.4027862638459
9.170939424619522,-1.4274792827454874,1.7559299611573462,-1470.303661227852
9.14946801176084,-1.406007869886805,1.7463567187569156,-1448.1881059834093
9.1279035691204,-1.3844434272463655,1.7367889797411515,-1425.9767300637563
9.108707708675896,-1.3652475668018607,1.7272829494718738,-1406.2049938059163
9.0854131062442,-1.341952964370165,1.717746920002016,-1382.21155330127
9.066651153859969,-1.3231910119859336,1.708281859904788,-1362.8867423455115
9.044326949494115,-1.3008668076200802,1.698812667623129,-1339.8928118486826
9.02354518994407,-1.2800850480700348,1.6893730285797146,-1318.4875995121356
9.00353619222543,-1.2600760503513957,1.6799781219608223,-1297.8783318619373
8.981059683106361,-1.237599541232326,1.6705827246447382,-1274.7275274692956
8.961515913785236,-1.2180557719112013,1.661241446992387,-1254.5974450685371
8.935253043397973,-1.1917929015239377,1.6518400058986227,-1227.5466885696558
8.918445252275905,-1.1749851104018703,1.6425405241189779,-1210.2346637139262
8.89924863954804,-1.1557884976740045,1.633300540349507,-1190.4621526042245
8.875962106956994,-1.1325019650829589,1.6240565166105998,-1166.4770240354476
8.857217601308985,-1.1137574594349502,1.6148789287279852,-1147.1701832179986
8.834914074209749,-1.091453932335714,1.6057154917768515,-1124.1975503057854
8.81414925401618,-1.0706891121421442,1.5965897503831898,-1102.8097855064086
8.794155573638005,-1.0506954317639696,1.5875125423802725,-1082.2162947168886
8.771685980281735,-1.0282258384076997,1.5784520338753276,-1059.0726135599305
8.75213968287149,-1.0086795409974556,1.5694467815243411,-1038.9399272273793
8.730636656879632,-0.9871765150055971,1.560472859356084,-1016.7918104557649
8.709047790975545,-0.9655876491015096,1.5515306861398013,-994.5552785745548
8.689834685321337,-0.9463745434473019,1.5426481844736457,-974.7657797507209
8.666533878354238,-0.9230737364802035,1.5337806539099395,-950.7659485746098
8.64777959807701,-0.904319456202975,1.524978268238242,-931.4490398890644
8.625469878263099,-0.8820097363890635,1.5162043587537408,-908.4700284807356
8.60470690242649,-0.8612467605524543,1.5074759132785502,-887.0841633690279
8.584720527576986,-0.8412603857029506,1.498800927154426,-866.4981972740392
8.562260164329048,-0.8188000224550134,1.4901572511976349,-843.3640231286638
8.542725819345199,-0.7992656774711637,1.4815723570797354,-823.2436477952986
8.52123349586746,-0.7777733539934246,1.473029723320386,-801.1065546132273
8.49965120614053,-0.7561910642664955,1.464529940427519,-778.8767961944903
8.480441187721615,-0.7369810458475801,1.4560928205413866,-759.0904772230074
8.457139278630105,-0.7136791367560704,1.4476875371387459,-735.0895108587525
8.438379033005496,-0.6949188911314614,1.4393492508021901,-715.7664578654052
8.416061246937936,-0.6726011050639009,1.4310529445857676,-692.7791382158179
8.395290163505274,-0.6518300216312394,1.422810723207974,-671.3849222801766
8.375295257977353,-0.6318351161033178,1.4146284219093295,-650.7901695864173
8.35282975059539,-0.6093696087213551,1.4064913961333192,-627.6506969829958
8.333293917002285,-0.5898337751282501,1.3984186766143356,-607.5287883820976
8.311802563161306,-0.5683424212872712,1.3903995599733465,-585.3926939258893
8.290224684742032,-0.5467645428679972,1.3824349347899298,-563.1674791540371
8.271021025002668,-0.5275608831286327,1.3745383239767097,-543.3877096224917
8.245926971143787,-0.5024668292697516,1.3666812627510687,-517.5408341478442
8.22693178848214,-0.4834716466081055,1.3588951205845912,-497.9757960063486
8.204629184755685,-0.46116904288165017,1.3511655222282732,-475.0041141680997
8.183929186199702,-0.4404690443256669,1.3435008958685333,-453.68311565543695
8.163950069138432,-0.4204899272643967,1.3359050756776065,-433.1046250823286
8.143375404409337,-0.39991526253530196,1.3283765359157977,-411.912720411361
8.124052990417809,-0.38059284854377395,1.3209206546916652,-392.0106340000871
8.09992812013441,-0.35646797826037435,1.313522085113847,-367.1620176081855
8.079231769644304,-0.3357716277702689,1.3061939659287427,-345.84477660337694
8.06155576946377,-0.3180956275897344,1.298946041831376,-327.63849641742644
8.036501447205165,-0.2930413053311298,1.2917585042848367,-301.8325444910637
8.017507910601736,-0.2740477687277014,1.2846491763654697,-282.2692017895324
7.997661706701721,-0.2542015648276861,1.2776165819729373,-261.82761177251666
7.974511343195322,-0.23105120132128665,1.2706547376440926,-237.98273736092523
7.956865255739483,-0.21340511386544758,1.2637760433060674,-219.807267281411
7.933964105460801,-0.19050396358676647,1.256971686355449,-196.21908249436945
7.912811333648159,-0.1693511917741244,1.2502463299607425,-174.4317275273481
7.8929753844210255,-0.14951524254699056,1.243603056510725,-154.00069982340025
7.871637612647401,-0.12817747077336605,1.237041106599353,-132.02279489656704
7.849838671751179,-0.10637852987714425,1.2305615412090902,-109.56988577345857
7.8270861888178125,-0.08362604694377751,1.224165342575734,-86.13482835209084
7.808090055435362,-0.06462991356132708,1.2178565439456437,-66.56881096816689
7.785787844725414,-0.0423277028513791,1.2116346022266096,-43.59753393692047
7.765090109857539,-0.021629967983503917,1.205501664165079,-22.278867023009035
7.745114834549781,-0.001654692675746361,1.1994590226688886,-1.7043334560187517
7.72237412678594,0.02108601508809471,1.1935081799078957,21.718595540737553
7.705219356140147,0.03824078573388778,1.1876492751745407,39.38800930590442
7.680378571879674,0.06308156999436054,1.1818862699231298,64.97401709419135
7.660783069400196,0.08267707247383882,1.1762183391745353,85.15738464805398
7.6455314214056544,0.09792872046838053,1.1706429104636917,100.86658208243193
7.636171172751668,0.10728896912236685,1.1651545262481733,110.50763819603786
7.640459789047047,0.10300035282698783,1.1597398455316044,106.09036341179745
7.655397191745585,0.08806295012844956,1.1543892949334404,90.70483863230305
7.676018654456547,0.06744148741748823,1.1490998868039992,69.46473204001288
7.69983305860885,0.04362708326518483,1.1438723437054714,44.93589576314037
7.726362887087344,0.017097254786690996,1.138709264448717,17.610172430291726
7.749527112504437,-0.006066970630402402,1.1336144878087222,-6.248979749314474
7.772384628786064,-0.02892448691202887,1.1285906278929598,-29.792221519389734
7.796645674611566,-0.05318553273753146,1.1236408074204578,-54.78109871965741
7.819173569357081,-0.07571342748304577,1.1187670240844452,-77.98483030753714
7.834280011094876,-0.09081986922084084,1.113966230525752,-93.54446529746608
7.837410766585988,-0.09395062471195281,1.1092294823149276,-96.7691434533114
7.830651848835527,-0.08719170696149181,1.1045485218982198,-89.80745817033656
7.813546235826026,-0.07008609395199095,1.099916534852598,-72.18867677055067
7.792128307015004,-0.04866816514096861,1.0953329716107396,-50.12821009519767
7.7692564640557435,-0.025796322181708575,1.0907999327733953,-26.570211847159833
7.745958421042832,-0.0024982791687966355,1.0863202662113791,-2.5732275438605345
7.720707114319223,0.022753027554811567,1.081897263188339,23.435618381455914
7.696409142922983,0.047050998951052136,1.0775342275535011,48.462528919583704
7.674387901833924,0.0690722400401107,1.0732332175495125,71.14440724131401
7.6495896768823215,0.09387046499171348,1.0689985822323356,96.68657894146489
7.635073423780653,0.1083867180933824,1.064825044781827,111.63831963618387
7.628452953061867,0.11500718881216798,1.0607061268501574,118.45740447653301
7.6320251908146135,0.11143495105942147,1.0566324163125154,114.77799959120411
7.64595633832092,0.09750380355311528,1.0525953388020712,100.42891765970873
7.6671546529022985,0.0763054889717365,1.0485912966563353,78.5946536408886
7.689693253748905,0.05376688812513031,1.044622291282784,55.37989476888421
7.715195166001532,0.028264975872502873,1.0406906160539546,29.11292514867796
7.740244540400174,0.0032156014738609073,1.0368002074396325,3.3120695180767346
7.76263123480208,-0.019171092928044864,1.0329543868975979,-19.74622571588621
7.788160352722734,-0.04470021084869913,1.0291568916555731,-46.0412171741601
7.8090840935550725,-0.06562395168103752,1.025409293188545,-67.59267023146863
7.832885142656574,-0.08942500078253879,1.0217156457032834,-92.10775080601495
7.8493159808022845,-0.10585583892824957,1.0180733681628067,-109.03151409609706
7.855003820899165,-0.11154367902512963,1.0144746783578567,-114.8899893958835
7.851150989547572,-0.10769084767353743,1.0109115314491266,-110.92157310374354
7.837664992835307,-0.09420485096127162,1.0073767149142971,-97.03099649010977
7.816516526227458,-0.0730563843534231,1.0038668291727555,-75.2480758840258
7.79241562259305,-0.04895548071901512,1.000383426391765,-50.42414514058557
7.768825304871591,-0.025365162997555757,0.9969300856148932,-26.12611788748243
7.742040683911022,0.0014194579630126825,0.9935100821870138,1.462041701903063
7.7201405357614385,0.023319606112596425,0.9901268975961873,24.019194295974316
7.694596743807619,0.04886339806641615,0.9867843791323996,50.32930000840864
7.6729806698442005,0.07047947202983451,0.9834843965117684,72.59385619072955
7.659846892531567,0.08361324934246817,0.9802244074516852,86.1216468227422
7.654568364288603,0.08889177758543187,0.9770000206495194,91.55853091299483
7.660581354597099,0.0828787872769361,0.9738041045914236,85.36515089524417
7.676533443879869,0.06692669799416606,0.9706316020957602,68.93449893399105
7.697904439837256,0.045555702036779167,0.9674820327570783,46.92237309788254
7.7208083157582506,0.022651826115784424,0.9643577892992217,23.331380899257958
7.747469016591243,-0.004008874717207789,0.961261983244633,-4.129140958724022
7.769835241565081,-0.026375099691046344,0.9581980610958203,-27.166352681777735
7.795831344098295,-0.052371202224260394,0.9551700625834805,-53.942338290988204
7.817613404230697,-0.07415326235666164,0.9521798055792708,-76.3778602273615
7.830681159223885,-0.08722101734985,0.949224625247467,-89.83764787034549
7.835737229494194,-0.09227708762015929,0.9463000762666028,-95.04540024876407
7.829652907478149,-0.08619276560411393,0.9433991814536882,-88.77854857223736
7.813723891222108,-0.07026374934807311,0.9405169689124724,-72.3716618285153
7.79243499755012,-0.04897485567608495,0.9376529535484518,-50.444101346367496
7.769677479909529,-0.026217338035493754,0.9348094908871939,-27.003858176558566
7.743135426463533,0.0003247154105023853,0.9319895466706163,0.33445687281745684
7.720880296663818,0.02257984521021683,0.9291966118386576,23.257240566523336
7.6954760513979,0.04798409047613461,0.9264344149347942,49.42361319041865
7.6745917478361765,0.0688683940378585,0.923704609297709,70.93444585899425
7.660777290568476,0.08268285130555864,0.9210056560441189,85.16333684472539
7.65444953294043,0.0890106089336049,0.9183339351976776,91.68092720161304
7.659012191518183,0.08444795035585173,0.9156831084709631,86.98138886652728
7.673310211303591,0.07014993057044361,0.9130483671690282,72.25442848755691
7.693814041349112,0.04964610052492269,0.9104286638215464,51.135483540670364
7.7166619765366615,0.026798165337373447,0.9078259725414265,27.60211029749465
7.743365925176051,9.421669798381771e-05,0.9052432476415665,0.09704319892333224
7.766171621849422,-0.022711479975386695,0.9026840554258084,-23.392824374648296
7.791857298484976,-0.048397156610940684,0.9001521640362424,-49.84907130926891
7.813308854012304,-0.06984871213826871,0.8976494330125029,-71.94417350241677
7.828711819766584,-0.08525167789254873,0.8951750423792857,-87.80922822932519
7.837023808810252,-0.09356366693621698,0.892725847214467,-96.37057694430348
7.834541804007879,-0.09108166213384372,0.8902955250763699,-93.81411199785903
7.822101558348511,-0.07864141647447642,0.8878787229222698,-81.00065896871071
7.802769095902129,-0.05930895402809444,0.885473516847786,-61.088222648937275
7.780337116560065,-0.03687697468603002,0.8830812644629022,-37.983283926610916
7.75380083388551,-0.010340692011475028,0.8807045171805988,-10.650912771819279
7.730855203779551,0.012604938094484375,0.8783470193249829,12.983086237318906
7.705115423883435,0.0383447179905998,0.8760123392036699,39.49505953031779
7.681396073086784,0.0620640687872509,0.8737034361030267,63.92599085086843
7.6596034632742915,0.08385667859974344,0.8714224190409136,86.37237895773573
7.642013476462255,0.10144666541178005,0.8691692115100743,104.49006537413345
7.63602896224674,0.10743117962729531,0.8669374648295946,110.65411501611416
7.640710476243212,0.10274966563082266,0.8647202265078017,105.83215559974734
7.65458231730491,0.08887782456912507,0.862512291270911,91.54415930619882
7.67441286722597,0.0690472746480646,0.8603120880633818,71.11869288750653
7.699711684589517,0.043748457284517706,0.8581202976200961,45.060911003053235
7.722511951027715,0.020948190846319825,0.8559408575904881,21.57663657170942
7.748434537940008,-0.004974396065972719,0.8537767279282973,-5.123627947951901
7.772015436791205,-0.028555294917169682,0.8516312642310923,-29.411953764684775
7.795237833047677,-0.05177769117364228,0.8495074077436203,-53.331021908851554
7.818634927566474,-0.07517478569243874,0.8474081596891584,-77.43002926321189
7.831881254413286,-0.08842111253925111,0.8453309056918716,-91.07374591542865
7.836144309615652,-0.09268416774161725,0.8432713307324278,-95.46469277386576
7.830233137614092,-0.08677299574005737,0.8412238884201647,-89.37618561225909
7.815008343556921,-0.07154820168288634,0.8391844930927603,-73.69464773337292
7.7924001145190775,-0.04893997264504257,0.8371521038837795,-50.40817182439385
7.770036342798275,-0.02657620092424029,0.8351295921076797,-27.3734869519675
7.743956298798592,-0.0004961569245569564,0.8331196510540307,-0.5110416322936651
7.7198586113250105,0.023601530549024474,0.8311257554030347,24.30957646549521
7.695970209201049,0.047489932672985624,0.8291509993567622,48.914630653175195
7.672933130508463,0.07052701136557182,0.8271981023253773,72.64282170653898
7.657092659457817,0.08636748241621817,0.8252661753159131,88.9585068887047
7.648650599421033,0.09480954245300222,0.8233522797089153,97.65382872659228
7.649482724394314,0.09397741747972077,0.8214514273098631,96.7967400041124
7.660836272477095,0.08262386939694011,0.8195582203411678,85.10258547884831
7.680542619526332,0.06291752234770254,0.817670100856545,64.80504801813362
7.702283557998478,0.041176583875556894,0.8157886816920192,42.4118813918236
7.728292979690018,0.015167162184017258,0.8139161043205633,15.622177049537775
7.752860035303679,-0.009399893429644202,0.8120559706404709,-9.681890232533528
7.776547584401555,-0.033087442527519606,0.810211357831524,-34.08006580334519
7.80201287218856,-0.058552730314525014,0.8083858174036821,-60.30931222396077
7.823202835777593,-0.07974269390355815,0.80658083010239,-82.1349747206649
7.839604404706884,-0.0961442628328486,0.8047960742114618,-99.02859071783405
7.846854133326862,-0.10339399145282702,0.8030273609776266,-106.49581119641182
7.842275215824777,-0.09881507395074163,0.8012679494514144,-101.77952616926387
7.827717205921345,-0.0842570640473097,0.7995129125206211,-86.784775968729
7.808508340286702,-0.06504819841266674,0.7977616098468804,-66.99964436504673
7.783667624081392,-0.04020748220735726,0.7960146639106275,-41.41370667357798
7.759384680571223,-0.01592453869718824,0.7942754361710626,-16.402274858103887
7.735550352080449,0.007909789793585809,0.7925470411285105,8.147083487393383
7.710292444282972,0.03316769759106286,0.7908327217032333,34.16272851879475
7.6877297321679565,0.055730409706078454,0.7891349826274413,57.402321997260806
7.665295634888757,0.07816450698527788,0.7874563889204742,80.50944219483623
7.6501647591539985,0.09329538272003646,0.7857956568331005,96.09424420163755
7.6466712128258605,0.09678892904817449,0.7841473880197144,99.69259691961972
7.6530972071465,0.0903629347275352,0.7825064035651655,93.07382276936126
7.667869857921696,0.07559028395233902,0.7808692386724614,77.8579924709092
7.690306012876832,0.05315412899720329,0.77923464755164,54.748752867119386
7.714008425927115,0.02945171594692031,0.7776050743848445,30.33526742532792
7.7381813350290205,0.005278806845014472,0.7759834475905047,5.437171050364906
7.763933640373017,-0.020473498498981613,0.7743729729250063,-21.08770345395106
7.786396882060748,-0.042936740186712896,0.7727763015249743,-44.22484239231429
7.810579277644443,-0.06711913577040818,0.7711966073065949,-69.13270984352042
7.833608253396153,-0.09014811152211788,0.7696363017272019,-92.85255486778141
7.848081095990352,-0.10462095411631722,0.7680930921378017,-107.75958273980675
7.8558420957521555,-0.11238195387812056,0.7665638255345301,-115.75341249446417
7.851950576841728,-0.10849043496769273,0.7650416474983867,-111.7451480167235
7.837381478147245,-0.09392133627321009,0.7635209601976093,-96.73897636140639
7.817287146701695,-0.07382700482765969,0.7620006063057951,-76.04181497248948
7.793993133750788,-0.05053299187675275,0.7604817937646042,-52.048981633055334
7.7681068298851725,-0.024646688011137563,0.7589669722881573,-25.386088651471688
7.744763741377896,-0.0013035995038608306,0.7574595929829008,-1.3427074889766555
7.720217632287063,0.023242509586972382,0.7559625673928921,23.939784874581555
7.696412214711691,0.047047927162344294,0.7544787597970448,48.45936497721462
7.674945326262633,0.06851481561140194,0.7530101601327925,70.57026007974399
7.650254484261463,0.09320565761257171,0.7515605746252119,96.00182734094886
7.635848216933772,0.10761192494026339,0.750127004663197,110.84028268847129
7.629087477456007,0.11437266441802763,0.7487057192701115,117.80384435056845
